timestamp,date_time,is_ppg,green,red,infra_red
1708516801987,1708516801987,1,186143,58414,72245
1708516802027,1708516802027,1,185950,58411,72241
1708516802067,1708516802067,1,185869,58415,72247
1708516802107,1708516802107,1,185846,58417,72254
1708516802147,1708516802147,1,185812,58409,72255
1708516802187,1708516802187,1,185756,58414,72234
1708516802227,1708516802227,1,185736,58415,72240
1708516802267,1708516802267,1,185755,58419,72257
1708516802307,1708516802307,1,185827,58427,72275
1708516802347,1708516802347,1,185927,58439,72291
1708516802387,1708516802387,1,186055,58445,72311
1708516802427,1708516802427,1,186194,58454,72335
1708516802467,1708516802467,1,186334,58460,72353
1708516802507,1708516802507,1,186471,58476,72378
1708516802547,1708516802547,1,186618,58482,72402
1708516802587,1708516802587,1,186768,58492,72424
1708516802627,1708516802627,1,186948,58501,72449
1708516802667,1708516802667,1,187131,58510,72468
1708516802707,1708516802707,1,187235,58488,72437
1708516802747,1708516802747,1,187003,58439,72335
1708516802787,1708516802787,1,186536,58407,72243
1708516802827,1708516802827,1,186104,58393,72200
1708516802867,1708516802867,1,185822,58388,72182
1708516802907,1708516802907,1,185663,58388,72188
1708516802947,1708516802947,1,185624,58397,72201
1708516802987,1708516802987,1,185597,58402,72211
1708516803027,1708516803027,1,185534,58402,72206
1708516803067,1708516803067,1,185488,58400,72213
1708516803107,1708516803107,1,185466,58406,72220
1708516803147,1708516803147,1,185500,58413,72237
1708516803187,1708516803187,1,185576,58424,72252
1708516803227,1708516803227,1,185688,58427,72272
1708516803267,1708516803267,1,185801,58436,72286
1708516803307,1708516803307,1,185919,58444,72312
1708516803347,1708516803347,1,186052,58454,72338
1708516803387,1708516803387,1,186171,58461,72348
1708516803427,1708516803427,1,186319,58467,72370
1708516803467,1708516803467,1,186469,58480,72401
1708516803507,1708516803507,1,186604,58481,72407
1708516803547,1708516803547,1,186515,58453,72342
1708516803587,1708516803587,1,186080,58419,72248
1708516803627,1708516803627,1,185558,58394,72187
1708516803667,1708516803667,1,185156,58391,72164
1708516803707,1708516803707,1,184903,58383,72145
1708516803747,1708516803747,1,184790,58387,72147
1708516803787,1708516803787,1,184757,58388,72159
1708516803827,1708516803827,1,184708,58385,72152
1708516803867,1708516803867,1,184659,58387,72149
1708516803907,1708516803907,1,184618,58382,72142
1708516803947,1708516803947,1,184640,58387,72159
1708516803997,1708516803997,1,184718,58395,72174
1708516804035,1708516804035,1,184813,58397,72192
1708516804073,1708516804073,1,184922,58394,72203
1708516804111,1708516804111,1,185057,58406,72221
1708516804149,1708516804149,1,185192,58426,72257
1708516804187,1708516804187,1,185332,58434,72283
1708516804225,1708516804225,1,185483,58444,72313
1708516804263,1708516804263,1,185645,58454,72342
1708516804301,1708516804301,1,185815,58459,72364
1708516804339,1708516804339,1,185954,58458,72366
1708516804377,1708516804377,1,185808,58433,72295
1708516804415,1708516804415,1,185331,58398,72211
1708516804453,1708516804453,1,184829,58377,72158
1708516804491,1708516804491,1,184471,58368,72133
1708516804529,1708516804529,1,184257,58371,72133
1708516804567,1708516804567,1,184179,58379,72154
1708516804605,1708516804605,1,184181,58384,72167
1708516804643,1708516804643,1,184167,58390,72173
1708516804681,1708516804681,1,184141,58390,72171
1708516804719,1708516804719,1,184149,58392,72182
1708516804757,1708516804757,1,184218,58402,72200
1708516804795,1708516804795,1,184315,58408,72220
1708516804833,1708516804833,1,184449,58415,72249
1708516804871,1708516804871,1,184606,58422,72271
1708516804909,1708516804909,1,184766,58434,72290
1708516804947,1708516804947,1,184917,58438,72308
1708516804987,1708516804987,1,185089,58447,72337
1708516805027,1708516805027,1,185267,58456,72363
1708516805067,1708516805067,1,185436,58465,72387
1708516805107,1708516805107,1,185631,58469,72409
1708516805147,1708516805147,1,185811,58474,72424
1708516805187,1708516805187,1,185797,58451,72376
1708516805227,1708516805227,1,185418,58420,72295
1708516805267,1708516805267,1,184923,58400,72242
1708516805307,1708516805307,1,184563,58391,72221
1708516805347,1708516805347,1,184353,58392,72213
1708516805387,1708516805387,1,184272,58395,72224
1708516805427,1708516805427,1,184274,58398,72232
1708516805467,1708516805467,1,184280,58400,72237
1708516805507,1708516805507,1,184277,58406,72244
1708516805547,1708516805547,1,184289,58414,72257
1708516805587,1708516805587,1,184348,58417,72277
1708516805627,1708516805627,1,184453,58424,72294
1708516805667,1708516805667,1,184584,58426,72326
1708516805707,1708516805707,1,184730,58438,72338
1708516805747,1708516805747,1,184887,58446,72364
1708516805787,1708516805787,1,185044,58458,72391
1708516805827,1708516805827,1,185205,58463,72405
1708516805867,1708516805867,1,185363,58464,72425
1708516805907,1708516805907,1,185545,58476,72445
1708516805947,1708516805947,1,185728,58488,72470
1708516805987,1708516805987,1,185720,58466,72430
1708516806027,1708516806027,1,185369,58432,72349
1708516806067,1708516806067,1,184907,58422,72309
1708516806107,1708516806107,1,184612,58413,72292
1708516806147,1708516806147,1,184452,58411,72289
1708516806187,1708516806187,1,184422,58421,72307
1708516806227,1708516806227,1,184459,58424,72322
1708516806267,1708516806267,1,184488,58423,72327
1708516806307,1708516806307,1,184501,58413,72316
1708516806347,1708516806347,1,184513,58413,72314
1708516806387,1708516806387,1,184570,58418,72332
1708516806427,1708516806427,1,184670,58423,72350
1708516806467,1708516806467,1,184802,58433,72373
1708516806507,1708516806507,1,184961,58442,72389
1708516806547,1708516806547,1,185124,58447,72418
1708516806587,1708516806587,1,185284,58458,72432
1708516806627,1708516806627,1,185447,58459,72453
1708516806667,1708516806667,1,185633,58467,72475
1708516806707,1708516806707,1,185821,58473,72502
1708516806747,1708516806747,1,186017,58483,72528
1708516806787,1708516806787,1,186193,58487,72534
1708516806827,1708516806827,1,186147,58464,72490
1708516806867,1708516806867,1,185773,58438,72422
1708516806907,1708516806907,1,185349,58420,72374
1708516806947,1708516806947,1,185085,58406,72351
1708516806987,1708516806987,1,184933,58404,72351
1708516807027,1708516807027,1,184902,58412,72368
1708516807067,1708516807067,1,184950,58418,72378
1708516807107,1708516807107,1,184971,58418,72379
1708516807147,1708516807147,1,184963,58413,72378
1708516807187,1708516807187,1,184981,58412,72381
1708516807227,1708516807227,1,185044,58420,72392
1708516807267,1708516807267,1,185153,58423,72407
1708516807307,1708516807307,1,185285,58419,72427
1708516807347,1708516807347,1,185436,58433,72445
1708516807387,1708516807387,1,185600,58439,72460
1708516807427,1708516807427,1,185766,58446,72483
1708516807467,1708516807467,1,185923,58452,72515
1708516807507,1708516807507,1,186098,58465,72537
1708516807547,1708516807547,1,186284,58474,72562
1708516807587,1708516807587,1,186478,58478,72587
1708516807627,1708516807627,1,186588,58471,72566
1708516807667,1708516807667,1,186387,58439,72487
1708516807707,1708516807707,1,185963,58409,72418
1708516807747,1708516807747,1,185602,58406,72401
1708516807787,1708516807787,1,185383,58405,72400
1708516807827,1708516807827,1,185307,58411,72413
1708516807867,1708516807867,1,185324,58418,72434
1708516807907,1708516807907,1,185357,58417,72435
1708516807947,1708516807947,1,185360,58419,72439
1708516807997,1708516807997,1,185345,58412,72436
1708516808035,1708516808035,1,185372,58409,72440
1708516808073,1708516808073,1,185456,58419,72460
1708516808111,1708516808111,1,185558,58425,72477
1708516808149,1708516808149,1,185683,58426,72489
1708516808187,1708516808187,1,185826,58435,72511
1708516808225,1708516808225,1,185972,58445,72534
1708516808263,1708516808263,1,186125,58449,72545
1708516808301,1708516808301,1,186279,58455,72565
1708516808339,1708516808339,1,186460,58461,72585
1708516808377,1708516808377,1,186636,58466,72610
1708516808415,1708516808415,1,186735,58460,72591
1708516808453,1708516808453,1,186528,58432,72522
1708516808491,1708516808491,1,186085,58412,72471
1708516808529,1708516808529,1,185700,58406,72441
1708516808567,1708516808567,1,185458,58405,72440
1708516808605,1708516808605,1,185350,58402,72446
1708516808643,1708516808643,1,185360,58409,72460
1708516808681,1708516808681,1,185391,58403,72456
1708516808719,1708516808719,1,185402,58406,72456
1708516808757,1708516808757,1,185409,58407,72461
1708516808795,1708516808795,1,185427,58406,72456
1708516808833,1708516808833,1,185509,58405,72468
1708516808871,1708516808871,1,185620,58413,72486
1708516808909,1708516808909,1,185765,58417,72512
1708516808947,1708516808947,1,185911,58428,72532
1708516808987,1708516808987,1,186081,58440,72555
1708516809027,1708516809027,1,186256,58444,72570
1708516809067,1708516809067,1,186431,58450,72597
1708516809107,1708516809107,1,186601,58460,72625
1708516809147,1708516809147,1,186793,58468,72645
1708516809187,1708516809187,1,186990,58471,72664
1708516809227,1708516809227,1,187177,58480,72675
1708516809267,1708516809267,1,187122,58458,72618
1708516809307,1708516809307,1,186744,58428,72548
1708516809347,1708516809347,1,186319,58415,72518
1708516809387,1708516809387,1,186057,58419,72512
1708516809427,1708516809427,1,185927,58415,72512
1708516809467,1708516809467,1,185889,58414,72517
1708516809507,1708516809507,1,185920,58415,72524
1708516809547,1708516809547,1,185923,58410,72524
1708516809587,1708516809587,1,185909,58409,72515
1708516809627,1708516809627,1,185915,58407,72521
1708516809667,1708516809667,1,185949,58412,72530
1708516809707,1708516809707,1,186032,58417,72547
1708516809747,1708516809747,1,186153,58425,72574
1708516809787,1708516809787,1,186286,58434,72594
1708516809827,1708516809827,1,186424,58442,72613
1708516809867,1708516809867,1,186579,58446,72631
1708516809907,1708516809907,1,186719,58451,72644
1708516809947,1708516809947,1,186874,58457,72656
1708516809987,1708516809987,1,187039,58456,72679
1708516810027,1708516810027,1,187206,58464,72695
1708516810067,1708516810067,1,187334,58458,72694
1708516810107,1708516810107,1,187187,58425,72620
1708516810147,1708516810147,1,186760,58402,72552
1708516810187,1708516810187,1,186361,58398,72530
1708516810227,1708516810227,1,186116,58395,72523
1708516810267,1708516810267,1,186013,58396,72534
1708516810307,1708516810307,1,186016,58405,72546
1708516810347,1708516810347,1,186038,58402,72552
1708516810387,1708516810387,1,186056,58397,72553
1708516810427,1708516810427,1,186051,58394,72552
1708516810467,1708516810467,1,186061,58402,72559
1708516810507,1708516810507,1,186124,58411,72568
1708516810547,1708516810547,1,186230,58408,72589
1708516810587,1708516810587,1,186371,58420,72616
1708516810627,1708516810627,1,186525,58439,72644
1708516810667,1708516810667,1,186685,58442,72659
1708516810707,1708516810707,1,186838,58441,72675
1708516810747,1708516810747,1,186993,58469,72715
1708516810787,1708516810787,1,187143,58495,72764
1708516810827,1708516810827,1,187272,58493,72776
1708516810867,1708516810867,1,187261,58470,72726
1708516810907,1708516810907,1,186908,58440,72652
1708516810947,1708516810947,1,186473,58425,72610
1708516810987,1708516810987,1,186173,58422,72609
1708516811027,1708516811027,1,186017,58424,72609
1708516811067,1708516811067,1,185984,58429,72624
1708516811107,1708516811107,1,186010,58432,72629
1708516811147,1708516811147,1,186036,58432,72634
1708516811187,1708516811187,1,186039,58428,72639
1708516811227,1708516811227,1,186056,58430,72639
1708516811267,1708516811267,1,186107,58434,72659
1708516811307,1708516811307,1,186215,58436,72670
1708516811347,1708516811347,1,186340,58438,72679
1708516811387,1708516811387,1,186487,58443,72698
1708516811427,1708516811427,1,186642,58448,72717
1708516811467,1708516811467,1,186807,58454,72734
1708516811507,1708516811507,1,186963,58462,72753
1708516811547,1708516811547,1,187123,58466,72771
1708516811587,1708516811587,1,187303,58467,72789
1708516811627,1708516811627,1,187475,58477,72804
1708516811667,1708516811667,1,187533,58455,72772
1708516811707,1708516811707,1,187234,58426,72693
1708516811747,1708516811747,1,186751,58408,72646
1708516811787,1708516811787,1,186360,58402,72620
1708516811827,1708516811827,1,186132,58399,72617
1708516811867,1708516811867,1,186024,58403,72632
1708516811907,1708516811907,1,186015,58407,72654
1708516811947,1708516811947,1,186023,58408,72649
1708516811997,1708516811997,1,186002,58403,72642
1708516812035,1708516812035,1,185968,58403,72642
1708516812073,1708516812073,1,185983,58402,72654
1708516812111,1708516812111,1,186053,58412,72669
1708516812149,1708516812149,1,186143,58416,72685
1708516812187,1708516812187,1,186270,58416,72707
1708516812225,1708516812225,1,186412,58431,72724
1708516812263,1708516812263,1,186546,58436,72735
1708516812301,1708516812301,1,186700,58434,72744
1708516812339,1708516812339,1,186832,58436,72761
1708516812377,1708516812377,1,186982,58433,72782
1708516812415,1708516812415,1,187142,58449,72797
1708516812453,1708516812453,1,187325,58460,72821
1708516812491,1708516812491,1,187356,58441,72786
1708516812529,1708516812529,1,187048,58408,72697
1708516812567,1708516812567,1,186546,58387,72650
1708516812605,1708516812605,1,186170,58372,72626
1708516812643,1708516812643,1,185948,58370,72614
1708516812681,1708516812681,1,185854,58377,72625
1708516812719,1708516812719,1,185858,58376,72638
1708516812757,1708516812757,1,185870,58376,72638
1708516812795,1708516812795,1,185858,58374,72636
1708516812833,1708516812833,1,185838,58372,72635
1708516812871,1708516812871,1,185863,58373,72638
1708516812909,1708516812909,1,185945,58379,72654
1708516812947,1708516812947,1,186038,58384,72670
1708516812987,1708516812987,1,186165,58388,72683
1708516813027,1708516813027,1,186309,58391,72698
1708516813067,1708516813067,1,186458,58402,72720
1708516813107,1708516813107,1,186608,58403,72739
1708516813147,1708516813147,1,186765,58409,72753
1708516813187,1708516813187,1,186937,58415,72772
1708516813227,1708516813227,1,187103,58423,72792
1708516813267,1708516813267,1,187254,58423,72789
1708516813307,1708516813307,1,187159,58397,72732
1708516813347,1708516813347,1,186749,58378,72675
1708516813387,1708516813387,1,186305,58367,72648
1708516813427,1708516813427,1,186032,58370,72643
1708516813467,1708516813467,1,185927,58371,72656
1708516813507,1708516813507,1,185928,58371,72662
1708516813547,1708516813547,1,185971,58375,72663
1708516813587,1708516813587,1,185991,58369,72661
1708516813627,1708516813627,1,185994,58364,72650
1708516813667,1708516813667,1,186005,58354,72645
1708516813707,1708516813707,1,186056,58361,72652
1708516813747,1708516813747,1,186165,58368,72672
1708516813787,1708516813787,1,186293,58375,72695
1708516813827,1708516813827,1,186430,58387,72724
1708516813867,1708516813867,1,186583,58387,72729
1708516813907,1708516813907,1,186742,58393,72737
1708516813947,1708516813947,1,186905,58395,72762
1708516813987,1708516813987,1,187073,58402,72775
1708516814027,1708516814027,1,187222,58396,72777
1708516814067,1708516814067,1,187134,58373,72711
1708516814107,1708516814107,1,186720,58345,72654
1708516814147,1708516814147,1,186271,58333,72610
1708516814187,1708516814187,1,185982,58335,72605
1708516814227,1708516814227,1,185837,58337,72605
1708516814267,1708516814267,1,185822,58340,72624
1708516814307,1708516814307,1,185855,58345,72633
1708516814347,1708516814347,1,185875,58345,72632
1708516814387,1708516814387,1,185861,58339,72626
1708516814427,1708516814427,1,185854,58338,72627
1708516814467,1708516814467,1,185902,58349,72648
1708516814507,1708516814507,1,185991,58353,72661
1708516814547,1708516814547,1,186117,58355,72671
1708516814587,1708516814587,1,186259,58360,72693
1708516814627,1708516814627,1,186405,58368,72707
1708516814667,1708516814667,1,186539,58373,72724
1708516814707,1708516814707,1,186698,58378,72739
1708516814747,1708516814747,1,186854,58385,72753
1708516814787,1708516814787,1,187018,58388,72768
1708516814827,1708516814827,1,187093,58374,72739
1708516814867,1708516814867,1,186830,58335,72656
1708516814907,1708516814907,1,186319,58309,72592
1708516814947,1708516814947,1,185881,58307,72568
1708516814987,1708516814987,1,185606,58299,72558
1708516815027,1708516815027,1,185457,58307,72569
1708516815067,1708516815067,1,185432,58317,72579
1708516815107,1708516815107,1,185425,58321,72592
1708516815147,1708516815147,1,185375,58313,72589
1708516815187,1708516815187,1,185336,58308,72583
1708516815227,1708516815227,1,185350,58316,72585
1708516815267,1708516815267,1,185413,58313,72592
1708516815307,1708516815307,1,185515,58306,72601
1708516815347,1708516815347,1,185639,58322,72624
1708516815387,1708516815387,1,185785,58333,72651
1708516815427,1708516815427,1,185936,58330,72671
1708516815467,1708516815467,1,186081,58336,72684
1708516815507,1708516815507,1,186247,58351,72705
1708516815547,1708516815547,1,186409,58353,72719
1708516815587,1708516815587,1,186450,58335,72683
1708516815627,1708516815627,1,186127,58304,72608
1708516815667,1708516815667,1,185611,58282,72546
1708516815707,1708516815707,1,185201,58275,72523
1708516815747,1708516815747,1,184966,58262,72516
1708516815787,1708516815787,1,184884,58273,72522
1708516815827,1708516815827,1,184888,58269,72531
1708516815867,1708516815867,1,184890,58275,72535
1708516815907,1708516815907,1,184863,58276,72539
1708516815947,1708516815947,1,184826,58269,72531
1708516815997,1708516815997,1,184836,58268,72535
1708516816035,1708516816035,1,184904,58273,72552
1708516816073,1708516816073,1,185009,58278,72563
1708516816111,1708516816111,1,185122,58287,72582
1708516816149,1708516816149,1,185240,58290,72590
1708516816187,1708516816187,1,185360,58292,72608
1708516816225,1708516816225,1,185493,58295,72617
1708516816263,1708516816263,1,185626,58301,72640
1708516816301,1708516816301,1,185774,58316,72656
1708516816339,1708516816339,1,185927,58309,72668
1708516816377,1708516816377,1,185887,58286,72617
1708516816415,1708516816415,1,185458,58246,72528
1708516816453,1708516816453,1,184897,58231,72475
1708516816491,1708516816491,1,184515,58222,72458
1708516816529,1708516816529,1,184301,58228,72454
1708516816567,1708516816567,1,184219,58232,72461
1708516816605,1708516816605,1,184218,58231,72473
1708516816643,1708516816643,1,184219,58226,72472
1708516816681,1708516816681,1,184193,58221,72454
1708516816719,1708516816719,1,184176,58227,72464
1708516816757,1708516816757,1,184198,58224,72481
1708516816795,1708516816795,1,184299,58234,72491
1708516816833,1708516816833,1,184414,58240,72507
1708516816871,1708516816871,1,184560,58252,72531
1708516816909,1708516816909,1,184709,58260,72552
1708516816947,1708516816947,1,184867,58265,72565
1708516816987,1708516816987,1,185025,58262,72574
1708516817027,1708516817027,1,185196,58263,72588
1708516817067,1708516817067,1,185382,58275,72617
1708516817107,1708516817107,1,185536,58283,72621
1708516817147,1708516817147,1,185473,58251,72563
1708516817187,1708516817187,1,185045,58215,72483
1708516817227,1708516817227,1,184570,58198,72441
1708516817267,1708516817267,1,184274,58201,72425
1708516817307,1708516817307,1,184123,58203,72439
1708516817347,1708516817347,1,184115,58207,72451
1708516817387,1708516817387,1,184166,58211,72460
1708516817427,1708516817427,1,184199,58217,72458
1708516817467,1708516817467,1,184202,58214,72460
1708516817507,1708516817507,1,184223,58215,72473
1708516817547,1708516817547,1,184283,58212,72468
1708516817587,1708516817587,1,184412,58211,72477
1708516817627,1708516817627,1,184548,58218,72497
1708516817667,1708516817667,1,184711,58230,72522
1708516817707,1708516817707,1,184871,58234,72533
1708516817747,1708516817747,1,185028,58243,72551
1708516817787,1708516817787,1,185199,58249,72576
1708516817827,1708516817827,1,185371,58257,72587
1708516817867,1708516817867,1,185559,58264,72609
1708516817907,1708516817907,1,185749,58271,72633
1708516817947,1708516817947,1,185867,58258,72616
1708516817987,1708516817987,1,185672,58225,72537
1708516818027,1708516818027,1,185190,58203,72473
1708516818067,1708516818067,1,184757,58196,72458
1708516818107,1708516818107,1,184534,58196,72448
1708516818147,1708516818147,1,184447,58193,72452
1708516818187,1708516818187,1,184473,58197,72457
1708516818227,1708516818227,1,184523,58194,72469
1708516818267,1708516818267,1,184534,58194,72459
1708516818307,1708516818307,1,184528,58194,72456
1708516818347,1708516818347,1,184546,58201,72477
1708516818387,1708516818387,1,184622,58203,72493
1708516818427,1708516818427,1,184744,58206,72503
1708516818467,1708516818467,1,184887,58215,72516
1708516818507,1708516818507,1,185033,58219,72540
1708516818547,1708516818547,1,185187,58231,72558
1708516818587,1708516818587,1,185337,58227,72565
1708516818627,1708516818627,1,185500,58242,72592
1708516818667,1708516818667,1,185669,58245,72611
1708516818707,1708516818707,1,185808,58248,72613
1708516818747,1708516818747,1,185702,58222,72551
1708516818787,1708516818787,1,185287,58197,72492
1708516818827,1708516818827,1,184861,58190,72462
1708516818867,1708516818867,1,184617,58179,72451
1708516818907,1708516818907,1,184514,58190,72466
1708516818947,1708516818947,1,184550,58200,72488
1708516818987,1708516818987,1,184595,58207,72504
1708516819027,1708516819027,1,184631,58198,72501
1708516819067,1708516819067,1,184642,58198,72499
1708516819107,1708516819107,1,184670,58204,72512
1708516819147,1708516819147,1,184769,58204,72532
1708516819187,1708516819187,1,184900,58211,72541
1708516819227,1708516819227,1,185060,58209,72555
1708516819267,1708516819267,1,185227,58217,72575
1708516819307,1708516819307,1,185405,58220,72591
1708516819347,1708516819347,1,185580,58228,72615
1708516819387,1708516819387,1,185748,58237,72623
1708516819427,1708516819427,1,185934,58240,72648
1708516819467,1708516819467,1,186116,58246,72666
1708516819507,1708516819507,1,186223,58236,72648
1708516819547,1708516819547,1,185986,58204,72573
1708516819587,1708516819587,1,185496,58178,72522
1708516819627,1708516819627,1,185125,58181,72507
1708516819667,1708516819667,1,184937,58187,72517
1708516819707,1708516819707,1,184892,58189,72531
1708516819747,1708516819747,1,184938,58188,72536
1708516819787,1708516819787,1,185005,58196,72552
1708516819827,1708516819827,1,185012,58195,72551
1708516819867,1708516819867,1,185010,58193,72556
1708516819907,1708516819907,1,185055,58201,72569
1708516819947,1708516819947,1,185146,58200,72579
1708516819997,1708516819997,1,185282,58209,72599
1708516820035,1708516820035,1,185429,58218,72623
1708516820073,1708516820073,1,185574,58234,72654
1708516820111,1708516820111,1,185710,58243,72668
1708516820149,1708516820149,1,185868,58248,72691
1708516820187,1708516820187,1,186009,58245,72705
1708516820225,1708516820225,1,186167,58254,72716
1708516820263,1708516820263,1,186201,58238,72680
1708516820301,1708516820301,1,185879,58201,72608
1708516820339,1708516820339,1,185465,58187,72570
1708516820377,1708516820377,1,185190,58189,72566
1708516820415,1708516820415,1,185057,58192,72572
1708516820453,1708516820453,1,185061,58198,72602
1708516820491,1708516820491,1,185112,58207,72616
1708516820529,1708516820529,1,185151,58201,72611
1708516820567,1708516820567,1,185191,58200,72609
1708516820605,1708516820605,1,185218,58206,72621
1708516820643,1708516820643,1,185323,58214,72640
1708516820681,1708516820681,1,185436,58227,72665
1708516820719,1708516820719,1,185586,58233,72683
1708516820757,1708516820757,1,185746,58229,72695
1708516820795,1708516820795,1,185908,58227,72703
1708516820833,1708516820833,1,186088,58234,72720
1708516820871,1708516820871,1,186277,58253,72749
1708516820909,1708516820909,1,186466,58256,72768
1708516820947,1708516820947,1,186656,58247,72766
1708516820987,1708516820987,1,186662,58227,72721
1708516821027,1708516821027,1,186336,58201,72654
1708516821067,1708516821067,1,185938,58194,72635
1708516821107,1708516821107,1,185724,58199,72636
1708516821147,1708516821147,1,185644,58200,72651
1708516821187,1708516821187,1,185670,58209,72667
1708516821227,1708516821227,1,185745,58214,72682
1708516821267,1708516821267,1,185805,58218,72687
1708516821307,1708516821307,1,185848,58221,72696
1708516821347,1708516821347,1,185903,58225,72713
1708516821387,1708516821387,1,186002,58224,72712
1708516821427,1708516821427,1,186138,58235,72731
1708516821467,1708516821467,1,186296,58239,72754
1708516821507,1708516821507,1,186448,58255,72775
1708516821547,1708516821547,1,186612,58254,72790
1708516821587,1708516821587,1,186792,58260,72809
1708516821627,1708516821627,1,186956,58264,72823
1708516821667,1708516821667,1,187163,58267,72838
1708516821707,1708516821707,1,187368,58273,72858
1708516821747,1708516821747,1,187493,58256,72838
1708516821787,1708516821787,1,187320,58229,72772
1708516821827,1708516821827,1,186950,58214,72726
1708516821867,1708516821867,1,186678,58213,72716
1708516821907,1708516821907,1,186541,58216,72719
1708516821947,1708516821947,1,186526,58221,72743
1708516821987,1708516821987,1,186601,58228,72756
1708516822027,1708516822027,1,186679,58226,72767
1708516822067,1708516822067,1,186745,58225,72768
1708516822107,1708516822107,1,186801,58222,72769
1708516822147,1708516822147,1,186863,58226,72776
1708516822187,1708516822187,1,186972,58226,72785
1708516822227,1708516822227,1,187097,58229,72801
1708516822267,1708516822267,1,187246,58230,72811
1708516822307,1708516822307,1,187398,58236,72822
1708516822347,1708516822347,1,187561,58242,72842
1708516822387,1708516822387,1,187744,58257,72873
1708516822427,1708516822427,1,187917,58266,72894
1708516822467,1708516822467,1,188104,58266,72911
1708516822507,1708516822507,1,188285,58270,72914
1708516822547,1708516822547,1,188266,58239,72868
1708516822587,1708516822587,1,187943,58214,72805
1708516822627,1708516822627,1,187569,58212,72784
1708516822667,1708516822667,1,187338,58211,72783
1708516822707,1708516822707,1,187244,58215,72794
1708516822747,1708516822747,1,187256,58218,72814
1708516822787,1708516822787,1,187328,58222,72827
1708516822827,1708516822827,1,187374,58221,72833
1708516822867,1708516822867,1,187397,58223,72833
1708516822907,1708516822907,1,187436,58225,72838
1708516822947,1708516822947,1,187490,58216,72842
1708516822987,1708516822987,1,187585,58218,72844
1708516823027,1708516823027,1,187685,58225,72860
1708516823067,1708516823067,1,187817,58226,72870
1708516823107,1708516823107,1,187947,58228,72878
1708516823147,1708516823147,1,188090,58225,72889
1708516823187,1708516823187,1,188236,58235,72909
1708516823227,1708516823227,1,188382,58244,72927
1708516823267,1708516823267,1,188449,58229,72896
1708516823307,1708516823307,1,188232,58200,72840
1708516823347,1708516823347,1,187807,58187,72797
1708516823387,1708516823387,1,187466,58179,72781
1708516823427,1708516823427,1,187283,58166,72763
1708516823467,1708516823467,1,187215,58170,72781
1708516823507,1708516823507,1,187230,58177,72796
1708516823547,1708516823547,1,187259,58179,72803
1708516823587,1708516823587,1,187250,58169,72795
1708516823627,1708516823627,1,187241,58163,72788
1708516823667,1708516823667,1,187268,58162,72786
1708516823707,1708516823707,1,187321,58168,72792
1708516823747,1708516823747,1,187416,58167,72808
1708516823787,1708516823787,1,187513,58159,72807
1708516823827,1708516823827,1,187631,58164,72814
1708516823867,1708516823867,1,187758,58176,72838
1708516823907,1708516823907,1,187886,58183,72856
1708516823947,1708516823947,1,188029,58196,72884
1708516823997,1708516823997,1,188163,58201,72896
1708516824035,1708516824035,1,188142,58177,72849
1708516824073,1708516824073,1,187793,58154,72793
1708516824111,1708516824111,1,187365,58148,72768
1708516824149,1708516824149,1,187053,58146,72764
1708516824187,1708516824187,1,186905,58144,72770
1708516824225,1708516824225,1,186867,58150,72782
1708516824263,1708516824263,1,186897,58150,72791
1708516824301,1708516824301,1,186916,58158,72797
1708516824339,1708516824339,1,186916,58163,72810
1708516824377,1708516824377,1,186929,58169,72824
1708516824415,1708516824415,1,186980,58171,72827
1708516824453,1708516824453,1,187072,58170,72830
1708516824491,1708516824491,1,187188,58172,72849
1708516824529,1708516824529,1,187334,58172,72857
1708516824567,1708516824567,1,187457,58175,72869
1708516824605,1708516824605,1,187614,58176,72879
1708516824643,1708516824643,1,187780,58179,72892
1708516824681,1708516824681,1,187936,58190,72912
1708516824719,1708516824719,1,188060,58190,72912
1708516824757,1708516824757,1,187954,58168,72857
1708516824795,1708516824795,1,187574,58151,72817
1708516824833,1708516824833,1,187203,58148,72805
1708516824871,1708516824871,1,186997,58147,72807
1708516824909,1708516824909,1,186920,58150,72820
1708516824947,1708516824947,1,186954,58162,72841
1708516824987,1708516824987,1,187016,58168,72852
1708516825027,1708516825027,1,187061,58155,72848
1708516825067,1708516825067,1,187086,58160,72846
1708516825107,1708516825107,1,187112,58165,72858
1708516825147,1708516825147,1,187187,58169,72878
1708516825187,1708516825187,1,187291,58180,72894
1708516825227,1708516825227,1,187416,58186,72915
1708516825267,1708516825267,1,187556,58188,72922
1708516825307,1708516825307,1,187701,58195,72940
1708516825347,1708516825347,1,187843,58205,72959
1708516825387,1708516825387,1,187994,58212,72985
1708516825427,1708516825427,1,188148,58212,72990
1708516825467,1708516825467,1,188284,58206,72989
1708516825507,1708516825507,1,188188,58188,72937
1708516825547,1708516825547,1,187840,58168,72897
1708516825587,1708516825587,1,187524,58170,72891
1708516825627,1708516825627,1,187361,58172,72890
1708516825667,1708516825667,1,187302,58178,72904
1708516825707,1708516825707,1,187350,58182,72918
1708516825747,1708516825747,1,187416,58186,72927
1708516825787,1708516825787,1,187466,58177,72929
1708516825827,1708516825827,1,187489,58184,72934
1708516825867,1708516825867,1,187541,58187,72947
1708516825907,1708516825907,1,187616,58192,72962
1708516825947,1708516825947,1,187733,58194,72978
1708516825987,1708516825987,1,187866,58204,72995
1708516826027,1708516826027,1,188007,58207,73010
1708516826067,1708516826067,1,188167,58212,73026
1708516826107,1708516826107,1,188324,58217,73034
1708516826147,1708516826147,1,188488,58224,73058
1708516826187,1708516826187,1,188663,58226,73072
1708516826227,1708516826227,1,188823,58233,73090
1708516826267,1708516826267,1,189005,58239,73099
1708516826307,1708516826307,1,189035,58225,73067
1708516826347,1708516826347,1,188802,58201,73018
1708516826387,1708516826387,1,188460,58195,73001
1708516826427,1708516826427,1,188235,58195,73000
1708516826467,1708516826467,1,188118,58194,73006
1708516826507,1708516826507,1,188116,58202,73028
1708516826547,1708516826547,1,188180,58210,73032
1708516826587,1708516826587,1,188219,58210,73041
1708516826627,1708516826627,1,188255,58209,73050
1708516826667,1708516826667,1,188291,58207,73049
1708516826707,1708516826707,1,188358,58210,73053
1708516826747,1708516826747,1,188456,58213,73071
1708516826787,1708516826787,1,188574,58217,73082
1708516826827,1708516826827,1,188700,58225,73100
1708516826867,1708516826867,1,188848,58229,73117
1708516826907,1708516826907,1,188981,58229,73127
1708516826947,1708516826947,1,189133,58238,73143
1708516826997,1708516826997,1,189288,58247,73154
1708516827035,1708516827035,1,189451,58246,73163
1708516827073,1708516827073,1,189612,58250,73190
1708516827111,1708516827111,1,189787,58257,73202
1708516827149,1708516827149,1,189965,58263,73220
1708516827187,1708516827187,1,190056,58247,73198
1708516827225,1708516827225,1,189897,58218,73132
1708516827263,1708516827263,1,189576,58204,73090
1708516827301,1708516827301,1,189345,58199,73089
1708516827339,1708516827339,1,189222,58200,73093
1708516827377,1708516827377,1,189182,58201,73104
1708516827415,1708516827415,1,189214,58206,73119
1708516827453,1708516827453,1,189255,58210,73123
1708516827491,1708516827491,1,189287,58205,73132
1708516827529,1708516827529,1,189303,58208,73135
1708516827567,1708516827567,1,189349,58215,73143
1708516827605,1708516827605,1,189427,58218,73153
1708516827643,1708516827643,1,189521,58221,73171
1708516827681,1708516827681,1,189639,58227,73181
1708516827719,1708516827719,1,189756,58224,73184
1708516827757,1708516827757,1,189871,58216,73177
1708516827795,1708516827795,1,190012,58219,73196
1708516827833,1708516827833,1,190148,58225,73206
1708516827871,1708516827871,1,190282,58231,73218
1708516827909,1708516827909,1,190437,58237,73235
1708516827947,1708516827947,1,190573,58243,73251
1708516827987,1708516827987,1,190732,58245,73272
1708516828027,1708516828027,1,190875,58246,73265
1708516828067,1708516828067,1,190791,58218,73216
1708516828107,1708516828107,1,190497,58203,73170
1708516828147,1708516828147,1,190223,58200,73161
1708516828187,1708516828187,1,190054,58201,73176
1708516828227,1708516828227,1,189986,58203,73187
1708516828267,1708516828267,1,190005,58212,73200
1708516828307,1708516828307,1,190033,58215,73210
1708516828347,1708516828347,1,190049,58216,73215
1708516828387,1708516828387,1,190041,58219,73223
1708516828427,1708516828427,1,190065,58228,73235
1708516828467,1708516828467,1,190105,58233,73253
1708516828507,1708516828507,1,190186,58229,73267
1708516828547,1708516828547,1,190276,58240,73281
1708516828587,1708516828587,1,190381,58250,73291
1708516828627,1708516828627,1,190495,58250,73308
1708516828667,1708516828667,1,190593,58251,73318
1708516828707,1708516828707,1,190724,58259,73328
1708516828747,1708516828747,1,190843,58263,73347
1708516828787,1708516828787,1,190975,58265,73357
1708516828827,1708516828827,1,191112,58268,73367
1708516828867,1708516828867,1,191108,58248,73328
1708516828907,1708516828907,1,190858,58229,73276
1708516828947,1708516828947,1,190518,58223,73259
1708516828987,1708516828987,1,190271,58220,73253
1708516829027,1708516829027,1,190133,58219,73261
1708516829067,1708516829067,1,190079,58229,73274
1708516829107,1708516829107,1,190082,58229,73288
1708516829147,1708516829147,1,190086,58227,73288
1708516829187,1708516829187,1,190050,58227,73282
1708516829227,1708516829227,1,190044,58221,73287
1708516829267,1708516829267,1,190055,58226,73292
1708516829307,1708516829307,1,190104,58226,73295
1708516829347,1708516829347,1,190176,58227,73307
1708516829387,1708516829387,1,190253,58227,73315
1708516829427,1708516829427,1,190339,58234,73330
1708516829467,1708516829467,1,190436,58236,73343
1708516829507,1708516829507,1,190537,58239,73355
1708516829547,1708516829547,1,190650,58240,73367
1708516829587,1708516829587,1,190765,58241,73369
1708516829627,1708516829627,1,190901,58236,73366
1708516829667,1708516829667,1,191036,58233,73368
1708516829707,1708516829707,1,191107,58226,73354
1708516829747,1708516829747,1,190904,58204,73299
1708516829787,1708516829787,1,190497,58192,73261
1708516829827,1708516829827,1,190135,58193,73259
1708516829867,1708516829867,1,189906,58195,73263
1708516829907,1708516829907,1,189755,58200,73267
1708516829947,1708516829947,1,189702,58199,73272
1708516829987,1708516829987,1,189674,58198,73278
1708516830027,1708516830027,1,189624,58196,73280
1708516830067,1708516830067,1,189580,58191,73271
1708516830107,1708516830107,1,189538,58192,73277
1708516830147,1708516830147,1,189551,58198,73286
1708516830187,1708516830187,1,189582,58206,73299
1708516830227,1708516830227,1,189640,58202,73296
1708516830267,1708516830267,1,189718,58194,73296
1708516830307,1708516830307,1,189815,58196,73303
1708516830347,1708516830347,1,189906,58197,73305
1708516830387,1708516830387,1,189988,58195,73309
1708516830427,1708516830427,1,190096,58193,73321
1708516830467,1708516830467,1,190221,58203,73336
1708516830507,1708516830507,1,190341,58203,73347
1708516830547,1708516830547,1,190455,58204,73352
1708516830587,1708516830587,1,190469,58184,73325
1708516830627,1708516830627,1,190194,58162,73249
1708516830667,1708516830667,1,189760,58151,73215
1708516830707,1708516830707,1,189409,58141,73203
1708516830747,1708516830747,1,189189,58139,73194
1708516830787,1708516830787,1,189084,58145,73207
1708516830827,1708516830827,1,189040,58144,73210
1708516830867,1708516830867,1,189023,58144,73211
1708516830907,1708516830907,1,188980,58139,73208
1708516830947,1708516830947,1,188949,58140,73210
1708516830997,1708516830997,1,188922,58144,73211
1708516831035,1708516831035,1,188952,58143,73207
1708516831073,1708516831073,1,189017,58142,73221
1708516831111,1708516831111,1,189087,58144,73237
1708516831149,1708516831149,1,189187,58147,73248
1708516831187,1708516831187,1,189288,58151,73261
1708516831225,1708516831225,1,189388,58156,73273
1708516831263,1708516831263,1,189504,58162,73273
1708516831301,1708516831301,1,189622,58160,73292
1708516831339,1708516831339,1,189743,58168,73302
1708516831377,1708516831377,1,189887,58171,73311
1708516831415,1708516831415,1,190000,58170,73313
1708516831453,1708516831453,1,189877,58149,73251
1708516831491,1708516831491,1,189515,58129,73207
1708516831529,1708516831529,1,189173,58128,73188
1708516831567,1708516831567,1,188960,58129,73204
1708516831605,1708516831605,1,188865,58129,73212
1708516831643,1708516831643,1,188838,58135,73216
1708516831681,1708516831681,1,188854,58135,73223
1708516831719,1708516831719,1,188855,58120,73216
1708516831757,1708516831757,1,188834,58126,73213
1708516831795,1708516831795,1,188830,58131,73217
1708516831833,1708516831833,1,188874,58131,73227
1708516831871,1708516831871,1,188942,58136,73239
1708516831909,1708516831909,1,189042,58143,73253
1708516831947,1708516831947,1,189142,58147,73268
1708516831988,1708516831988,1,189260,58150,73276
1708516832028,1708516832028,1,189378,58147,73284
1708516832068,1708516832068,1,189490,58156,73303
1708516832108,1708516832108,1,189628,58159,73313
1708516832148,1708516832148,1,189775,58164,73323
1708516832188,1708516832188,1,189886,58156,73313
1708516832228,1708516832228,1,189755,58127,73245
1708516832268,1708516832268,1,189405,58110,73199
1708516832308,1708516832308,1,189060,58104,73177
1708516832348,1708516832348,1,188836,58101,73178
1708516832388,1708516832388,1,188708,58108,73185
1708516832428,1708516832428,1,188685,58109,73187
1708516832468,1708516832468,1,188690,58115,73200
1708516832508,1708516832508,1,188676,58111,73196
1708516832548,1708516832548,1,188663,58097,73178
1708516832588,1708516832588,1,188664,58097,73177
1708516832628,1708516832628,1,188695,58099,73187
1708516832668,1708516832668,1,188766,58106,73203
1708516832708,1708516832708,1,188861,58112,73212
1708516832748,1708516832748,1,188972,58112,73223
1708516832788,1708516832788,1,189093,58112,73230
1708516832828,1708516832828,1,189214,58104,73224
1708516832868,1708516832868,1,189329,58100,73218
1708516832908,1708516832908,1,189463,58099,73228
1708516832948,1708516832948,1,189587,58106,73234
1708516832988,1708516832988,1,189722,58104,73244
1708516833028,1708516833028,1,189847,58091,73246
1708516833068,1708516833068,1,189741,58076,73179
1708516833108,1708516833108,1,189346,58056,73117
1708516833148,1708516833148,1,188947,58046,73088
1708516833188,1708516833188,1,188663,58032,73067
1708516833228,1708516833228,1,188481,58030,73065
1708516833268,1708516833268,1,188390,58029,73070
1708516833308,1708516833308,1,188363,58034,73068
1708516833348,1708516833348,1,188323,58034,73067
1708516833388,1708516833388,1,188262,58030,73062
1708516833428,1708516833428,1,188213,58034,73061
1708516833468,1708516833468,1,188202,58030,73056
1708516833508,1708516833508,1,188245,58028,73064
1708516833548,1708516833548,1,188302,58032,73068
1708516833588,1708516833588,1,188371,58037,73073
1708516833628,1708516833628,1,188459,58037,73085
1708516833668,1708516833668,1,188558,58034,73088
1708516833708,1708516833708,1,188668,58040,73100
1708516833748,1708516833748,1,188787,58043,73107
1708516833788,1708516833788,1,188888,58046,73116
1708516833828,1708516833828,1,189021,58043,73118
1708516833868,1708516833868,1,189158,58040,73123
1708516833908,1708516833908,1,189237,58037,73108
1708516833948,1708516833948,1,189025,58005,73029
1708516833988,1708516833988,1,188589,57984,72967
1708516834028,1708516834028,1,188187,57975,72946
1708516834068,1708516834068,1,187927,57973,72926
1708516834108,1708516834108,1,187765,57971,72927
1708516834148,1708516834148,1,187704,57978,72932
1708516834188,1708516834188,1,187668,57973,72935
1708516834228,1708516834228,1,187620,57965,72923
1708516834268,1708516834268,1,187556,57960,72908
1708516834308,1708516834308,1,187533,57965,72912
1708516834348,1708516834348,1,187546,57969,72914
1708516834388,1708516834388,1,187590,57969,72924
1708516834428,1708516834428,1,187666,57973,72935
1708516834468,1708516834468,1,187765,57977,72947
1708516834508,1708516834508,1,187871,57982,72952
1708516834548,1708516834548,1,187979,57989,72965
1708516834588,1708516834588,1,188104,57997,72985
1708516834628,1708516834628,1,188223,58005,72993
1708516834668,1708516834668,1,188360,58011,73020
1708516834708,1708516834708,1,188500,58012,73024
1708516834748,1708516834748,1,188588,58006,72999
1708516834788,1708516834788,1,188406,57978,72932
1708516834828,1708516834828,1,188012,57957,72879
1708516834868,1708516834868,1,187678,57957,72857
1708516834908,1708516834908,1,187464,57955,72851
1708516834948,1708516834948,1,187367,57953,72852
1708516834998,1708516834998,1,187359,57962,72868
1708516835036,1708516835036,1,187352,57964,72872
1708516835074,1708516835074,1,187340,57963,72864
1708516835112,1708516835112,1,187307,57959,72853
1708516835150,1708516835150,1,187308,57964,72861
1708516835188,1708516835188,1,187344,57969,72871
1708516835226,1708516835226,1,187409,57969,72878
1708516835264,1708516835264,1,187509,57979,72898
1708516835302,1708516835302,1,187619,57986,72916
1708516835340,1708516835340,1,187737,57993,72923
1708516835378,1708516835378,1,187855,57994,72930
1708516835416,1708516835416,1,187985,58002,72955
1708516835454,1708516835454,1,188128,58007,72966
1708516835492,1708516835492,1,188232,58006,72958
1708516835530,1708516835530,1,188104,57978,72888
1708516835568,1708516835568,1,187697,57955,72816
1708516835606,1708516835606,1,187298,57944,72782
1708516835644,1708516835644,1,187030,57939,72766
1708516835682,1708516835682,1,186864,57937,72758
1708516835720,1708516835720,1,186811,57938,72765
1708516835758,1708516835758,1,186812,57944,72768
1708516835796,1708516835796,1,186786,57944,72763
1708516835834,1708516835834,1,186738,57943,72762
1708516835872,1708516835872,1,186730,57944,72762
1708516835910,1708516835910,1,186760,57949,72768
1708516835948,1708516835948,1,186828,57951,72780
1708516835988,1708516835988,1,186923,57954,72795
1708516836028,1708516836028,1,187044,57966,72795
1708516836068,1708516836068,1,187154,57965,72812
1708516836108,1708516836108,1,187270,57967,72827
1708516836148,1708516836148,1,187401,57970,72843
1708516836188,1708516836188,1,187527,57981,72854
1708516836228,1708516836228,1,187676,57986,72873
1708516836268,1708516836268,1,187823,57990,72887
1708516836308,1708516836308,1,187936,57983,72872
1708516836348,1708516836348,1,187753,57949,72794
1708516836388,1708516836388,1,187296,57925,72720
1708516836428,1708516836428,1,186849,57915,72676
1708516836468,1708516836468,1,186542,57907,72651
1708516836508,1708516836508,1,186352,57908,72642
1708516836548,1708516836548,1,186267,57898,72640
1708516836588,1708516836588,1,186252,57899,72634
1708516836628,1708516836628,1,186204,57895,72621
1708516836668,1708516836668,1,186143,57893,72616
1708516836708,1708516836708,1,186115,57892,72614
1708516836748,1708516836748,1,186124,57898,72626
1708516836788,1708516836788,1,186176,57902,72636
1708516836828,1708516836828,1,186261,57905,72647
1708516836868,1708516836868,1,186348,57908,72649
1708516836908,1708516836908,1,186463,57914,72663
1708516836948,1708516836948,1,186587,57923,72680
1708516836988,1708516836988,1,186722,57927,72698
1708516837028,1708516837028,1,186859,57940,72705
1708516837068,1708516837068,1,187002,57939,72735
1708516837108,1708516837108,1,187160,57948,72752
1708516837148,1708516837148,1,187325,57950,72768
1708516837188,1708516837188,1,187379,57936,72732
1708516837228,1708516837228,1,187081,57903,72639
1708516837268,1708516837268,1,186584,57883,72577
1708516837308,1708516837308,1,186196,57873,72550
1708516837348,1708516837348,1,185927,57868,72534
1708516837388,1708516837388,1,185795,57868,72528
1708516837428,1708516837428,1,185751,57871,72527
1708516837468,1708516837468,1,185731,57865,72527
1708516837508,1708516837508,1,185697,57864,72512
1708516837548,1708516837548,1,185648,57860,72498
1708516837588,1708516837588,1,185650,57858,72507
1708516837628,1708516837628,1,185696,57868,72518
1708516837668,1708516837668,1,185778,57872,72532
1708516837708,1708516837708,1,185882,57870,72542
1708516837748,1708516837748,1,186002,57880,72557
1708516837788,1708516837788,1,186125,57887,72569
1708516837828,1708516837828,1,186274,57896,72587
1708516837868,1708516837868,1,186420,57899,72609
1708516837908,1708516837908,1,186581,57905,72628
1708516837948,1708516837948,1,186742,57916,72646
1708516837988,1708516837988,1,186930,57926,72670
1708516838028,1708516838028,1,187071,57921,72656
1708516838068,1708516838068,1,186968,57887,72584
1708516838108,1708516838108,1,186542,57864,72511
1708516838148,1708516838148,1,186099,57854,72467
1708516838188,1708516838188,1,185796,57845,72454
1708516838228,1708516838228,1,185630,57848,72450
1708516838268,1708516838268,1,185595,57857,72462
1708516838308,1708516838308,1,185607,57863,72474
1708516838348,1708516838348,1,185593,57855,72473
1708516838388,1708516838388,1,185573,57859,72463
1708516838428,1708516838428,1,185576,57857,72471
1708516838468,1708516838468,1,185618,57866,72483
1708516838508,1708516838508,1,185720,57869,72502
1708516838548,1708516838548,1,185837,57879,72524
1708516838588,1708516838588,1,185972,57885,72536
1708516838628,1708516838628,1,186110,57898,72560
1708516838668,1708516838668,1,186269,57903,72575
1708516838708,1708516838708,1,186426,57905,72594
1708516838748,1708516838748,1,186595,57914,72610
1708516838788,1708516838788,1,186769,57921,72632
1708516838828,1708516838828,1,186834,57907,72599
1708516838868,1708516838868,1,186571,57878,72516
1708516838908,1708516838908,1,186112,57856,72458
1708516838948,1708516838948,1,185726,57850,72433
1708516838998,1708516838998,1,185513,57848,72417
1708516839036,1708516839036,1,185399,57835,72406
1708516839074,1708516839074,1,185402,57854,72429
1708516839112,1708516839112,1,185421,57851,72435
1708516839150,1708516839150,1,185397,57854,72436
1708516839188,1708516839188,1,185385,57859,72432
1708516839226,1708516839226,1,185408,57860,72442
1708516839264,1708516839264,1,185490,57861,72459
1708516839302,1708516839302,1,185593,57875,72477
1708516839340,1708516839340,1,185732,57886,72495
1708516839378,1708516839378,1,185878,57886,72511
1708516839416,1708516839416,1,186047,57895,72533
1708516839454,1708516839454,1,186203,57905,72560
1708516839492,1708516839492,1,186380,57911,72578
1708516839530,1708516839530,1,186555,57920,72608
1708516839568,1708516839568,1,186741,57931,72630
1708516839606,1708516839606,1,186945,57939,72647
1708516839644,1708516839644,1,187063,57931,72632
1708516839682,1708516839682,1,186851,57894,72545
1708516839720,1708516839720,1,186330,57873,72462
1708516839758,1708516839758,1,185855,57860,72421
1708516839796,1708516839796,1,185538,57853,72397
1708516839834,1708516839834,1,185356,57850,72399
1708516839872,1708516839872,1,185293,57856,72400
1708516839910,1708516839910,1,185281,57855,72404
1708516839948,1708516839948,1,185254,57855,72394
1708516839988,1708516839988,1,185204,57848,72390
1708516840028,1708516840028,1,185197,57846,72386
1708516840068,1708516840068,1,185239,57855,72402
1708516840108,1708516840108,1,185325,57861,72419
1708516840148,1708516840148,1,185445,57867,72437
1708516840188,1708516840188,1,185580,57884,72462
1708516840228,1708516840228,1,185734,57890,72483
1708516840268,1708516840268,1,185915,57890,72504
1708516840308,1708516840308,1,186070,57904,72526
1708516840348,1708516840348,1,186242,57914,72543
1708516840388,1708516840388,1,186424,57916,72565
1708516840428,1708516840428,1,186618,57920,72589
1708516840468,1708516840468,1,186825,57929,72603
1708516840508,1708516840508,1,186937,57915,72576
1708516840548,1708516840548,1,186664,57882,72482
1708516840588,1708516840588,1,186141,57854,72405
1708516840628,1708516840628,1,185678,57845,72364
1708516840668,1708516840668,1,185369,57839,72343
1708516840708,1708516840708,1,185210,57842,72338
1708516840748,1708516840748,1,185153,57844,72348
1708516840788,1708516840788,1,185145,57845,72348
1708516840828,1708516840828,1,185106,57844,72347
1708516840868,1708516840868,1,185070,57844,72339
1708516840908,1708516840908,1,185076,57842,72344
1708516840948,1708516840948,1,185137,57843,72355
1708516840988,1708516840988,1,185242,57847,72381
1708516841028,1708516841028,1,185370,57873,72401
1708516841068,1708516841068,1,185523,57866,72416
1708516841108,1708516841108,1,185681,57872,72434
1708516841148,1708516841148,1,185847,57877,72447
1708516841188,1708516841188,1,186021,57885,72468
1708516841228,1708516841228,1,186208,57894,72507
1708516841268,1708516841268,1,186394,57909,72525
1708516841308,1708516841308,1,186596,57914,72540
1708516841348,1708516841348,1,186810,57926,72577
1708516841388,1708516841388,1,187024,57931,72601
1708516841428,1708516841428,1,187122,57923,72570
1708516841468,1708516841468,1,186855,57885,72477
1708516841508,1708516841508,1,186334,57855,72405
1708516841548,1708516841548,1,185911,57850,72370
1708516841588,1708516841588,1,185639,57843,72350
1708516841628,1708516841628,1,185497,57839,72339
1708516841668,1708516841668,1,185470,57834,72337
1708516841708,1708516841708,1,185486,57835,72343
1708516841748,1708516841748,1,185462,57836,72339
1708516841788,1708516841788,1,185446,57837,72345
1708516841828,1708516841828,1,185462,57845,72352
1708516841868,1708516841868,1,185532,57847,72367
1708516841908,1708516841908,1,185649,57854,72382
1708516841948,1708516841948,1,185790,57861,72412
1708516841988,1708516841988,1,185947,57869,72433
1708516842028,1708516842028,1,186081,57867,72438
1708516842068,1708516842068,1,186255,57885,72476
1708516842108,1708516842108,1,186438,57894,72496
1708516842148,1708516842148,1,186607,57901,72515
1708516842188,1708516842188,1,186790,57912,72542
1708516842228,1708516842228,1,186979,57920,72561
1708516842268,1708516842268,1,187196,57926,72593
1708516842308,1708516842308,1,187328,57922,72576
1708516842348,1708516842348,1,187152,57888,72490
1708516842388,1708516842388,1,186688,57854,72401
1708516842428,1708516842428,1,186262,57841,72365
1708516842468,1708516842468,1,186001,57832,72346
1708516842508,1708516842508,1,185887,57838,72350
1708516842548,1708516842548,1,185881,57844,72366
1708516842588,1708516842588,1,185898,57843,72374
1708516842628,1708516842628,1,185903,57840,72366
1708516842668,1708516842668,1,185883,57839,72359
1708516842708,1708516842708,1,185888,57847,72373
1708516842748,1708516842748,1,185955,57851,72382
1708516842788,1708516842788,1,186068,57851,72393
1708516842828,1708516842828,1,186206,57859,72415
1708516842868,1708516842868,1,186359,57869,72443
1708516842908,1708516842908,1,186529,57876,72462
1708516842948,1708516842948,1,186689,57878,72471
1708516842998,1708516842998,1,186867,57887,72492
1708516843036,1708516843036,1,187033,57887,72505
1708516843074,1708516843074,1,187221,57904,72538
1708516843112,1708516843112,1,187421,57915,72565
1708516843150,1708516843150,1,187570,57910,72564
1708516843188,1708516843188,1,187427,57872,72481
1708516843226,1708516843226,1,186941,57851,72390
1708516843264,1708516843264,1,186438,57828,72336
1708516843302,1708516843302,1,186116,57809,72307
1708516843340,1708516843340,1,185916,57808,72299
1708516843378,1708516843378,1,185854,57821,72308
1708516843416,1708516843416,1,185862,57824,72322
1708516843454,1708516843454,1,185838,57815,72309
1708516843492,1708516843492,1,185789,57799,72275
1708516843530,1708516843530,1,185774,57793,72275
1708516843568,1708516843568,1,185802,57800,72286
1708516843606,1708516843606,1,185877,57814,72310
1708516843644,1708516843644,1,185994,57826,72337
1708516843682,1708516843682,1,186136,57836,72364
1708516843720,1708516843720,1,186288,57850,72391
1708516843758,1708516843758,1,186440,57863,72422
1708516843796,1708516843796,1,186612,57869,72446
1708516843834,1708516843834,1,186767,57876,72465
1708516843872,1708516843872,1,186947,57882,72483
1708516843910,1708516843910,1,187136,57894,72509
1708516843948,1708516843948,1,187337,57900,72530
1708516843988,1708516843988,1,187417,57879,72493
1708516844028,1708516844028,1,187106,57838,72387
1708516844068,1708516844068,1,186552,57812,72301
1708516844108,1708516844108,1,186064,57784,72247
1708516844148,1708516844148,1,185711,57769,72211
1708516844188,1708516844188,1,185504,57773,72197
1708516844228,1708516844228,1,185410,57775,72202
1708516844268,1708516844268,1,185365,57775,72205
1708516844308,1708516844308,1,185312,57769,72193
1708516844348,1708516844348,1,185248,57767,72183
1708516844388,1708516844388,1,185231,57770,72196
1708516844428,1708516844428,1,185281,57777,72205
1708516844468,1708516844468,1,185365,57779,72224
1708516844508,1708516844508,1,185491,57788,72249
1708516844548,1708516844548,1,185636,57794,72262
1708516844588,1708516844588,1,185799,57797,72286
1708516844628,1708516844628,1,185957,57812,72311
1708516844668,1708516844668,1,186122,57822,72334
1708516844708,1708516844708,1,186288,57832,72355
1708516844748,1708516844748,1,186454,57835,72371
1708516844788,1708516844788,1,186638,57840,72390
1708516844828,1708516844828,1,186835,57850,72420
1708516844868,1708516844868,1,186947,57841,72398
1708516844908,1708516844908,1,186693,57801,72291
1708516844948,1708516844948,1,186130,57764,72194
1708516844988,1708516844988,1,185611,57748,72151
1708516845028,1708516845028,1,185292,57750,72136
1708516845068,1708516845068,1,185102,57748,72128
1708516845108,1708516845108,1,185061,57753,72138
1708516845148,1708516845148,1,185065,57746,72135
1708516845188,1708516845188,1,185044,57745,72126
1708516845228,1708516845228,1,184992,57736,72115
1708516845268,1708516845268,1,184982,57740,72116
1708516845308,1708516845308,1,185021,57744,72134
1708516845348,1708516845348,1,185125,57754,72153
1708516845388,1708516845388,1,185251,57764,72177
1708516845428,1708516845428,1,185406,57773,72205
1708516845468,1708516845468,1,185570,57783,72222
1708516845508,1708516845508,1,185743,57794,72240
1708516845548,1708516845548,1,185922,57802,72269
1708516845588,1708516845588,1,186093,57812,72301
1708516845628,1708516845628,1,186287,57820,72327
1708516845668,1708516845668,1,186502,57836,72364
1708516845708,1708516845708,1,186679,57839,72371
1708516845748,1708516845748,1,186597,57808,72301
1708516845788,1708516845788,1,186156,57773,72204
1708516845828,1708516845828,1,185670,57762,72151
1708516845868,1708516845868,1,185355,57758,72128
1708516845908,1708516845908,1,185204,57760,72132
1708516845948,1708516845948,1,185180,57774,72159
1708516845988,1708516845988,1,185220,57777,72177
1708516846028,1708516846028,1,185237,57780,72172
1708516846068,1708516846068,1,185247,57776,72166
1708516846108,1708516846108,1,185258,57780,72176
1708516846148,1708516846148,1,185313,57796,72205
1708516846188,1708516846188,1,185429,57799,72229
1708516846228,1708516846228,1,185568,57815,72253
1708516846268,1708516846268,1,185743,57825,72281
1708516846308,1708516846308,1,185924,57834,72307
1708516846348,1708516846348,1,186110,57843,72331
1708516846388,1708516846388,1,186302,57853,72355
1708516846428,1708516846428,1,186504,57860,72381
1708516846468,1708516846468,1,186694,57873,72401
1708516846508,1708516846508,1,186815,57859,72377
1708516846548,1708516846548,1,186560,57823,72279
1708516846588,1708516846588,1,186057,57791,72193
1708516846628,1708516846628,1,185610,57777,72149
1708516846668,1708516846668,1,185342,57767,72121
1708516846708,1708516846708,1,185224,57769,72115
1708516846748,1708516846748,1,185215,57776,72136
1708516846788,1708516846788,1,185247,57784,72152
1708516846828,1708516846828,1,185252,57778,72140
1708516846868,1708516846868,1,185244,57777,72141
1708516846908,1708516846908,1,185274,57778,72142
1708516846948,1708516846948,1,185349,57784,72152
1708516846988,1708516846988,1,185471,57787,72172
1708516847028,1708516847028,1,185624,57791,72188
1708516847068,1708516847068,1,185788,57801,72219
1708516847108,1708516847108,1,185966,57813,72246
1708516847148,1708516847148,1,186146,57822,72267
1708516847188,1708516847188,1,186322,57832,72298
1708516847228,1708516847228,1,186513,57844,72330
1708516847268,1708516847268,1,186718,57856,72352
1708516847308,1708516847308,1,186810,57845,72328
1708516847348,1708516847348,1,186524,57800,72213
1708516847388,1708516847388,1,185961,57764,72115
1708516847428,1708516847428,1,185447,57749,72058
1708516847468,1708516847468,1,185132,57745,72029
1708516847508,1708516847508,1,184949,57744,72032
1708516847548,1708516847548,1,184928,57746,72046
1708516847588,1708516847588,1,184925,57746,72042
1708516847628,1708516847628,1,184902,57749,72039
1708516847668,1708516847668,1,184862,57744,72028
1708516847708,1708516847708,1,184854,57741,72024
1708516847748,1708516847748,1,184916,57743,72031
1708516847788,1708516847788,1,185020,57747,72052
1708516847828,1708516847828,1,185154,57756,72075
1708516847868,1708516847868,1,185300,57757,72086
1708516847908,1708516847908,1,185475,57772,72114
1708516847948,1708516847948,1,185645,57783,72139
1708516847998,1708516847998,1,185810,57789,72169
1708516848036,1708516848036,1,186019,57805,72201
1708516848074,1708516848074,1,186212,57816,72229
1708516848112,1708516848112,1,186377,57812,72240
1708516848150,1708516848150,1,186269,57787,72155
1708516848188,1708516848188,1,185748,57748,72036
1708516848226,1708516848226,1,185156,57714,71950
1708516848264,1708516848264,1,184737,57709,71914
1708516848302,1708516848302,1,184504,57698,71898
1708516848340,1708516848340,1,184424,57708,71901
1708516848378,1708516848378,1,184426,57708,71917
1708516848416,1708516848416,1,184414,57700,71906
1708516848454,1708516848454,1,184383,57692,71883
1708516848492,1708516848492,1,184362,57697,71886
1708516848530,1708516848530,1,184396,57701,71905
1708516848568,1708516848568,1,184489,57719,71931
1708516848606,1708516848606,1,184628,57723,71955
1708516848644,1708516848644,1,184785,57738,71986
1708516848682,1708516848682,1,184950,57753,72017
1708516848720,1708516848720,1,185114,57759,72040
1708516848758,1708516848758,1,185286,57770,72065
1708516848796,1708516848796,1,185481,57779,72092
1708516848834,1708516848834,1,185675,57792,72127
1708516848872,1708516848872,1,185864,57798,72151
1708516848910,1708516848910,1,185892,57781,72102
1708516848948,1708516848948,1,185502,57739,71980
1708516848988,1708516848988,1,184908,57704,71887
1708516849028,1708516849028,1,184474,57694,71843
1708516849068,1708516849068,1,184218,57691,71826
1708516849108,1708516849108,1,184128,57699,71843
1708516849148,1708516849148,1,184161,57700,71862
1708516849188,1708516849188,1,184204,57701,71857
1708516849228,1708516849228,1,184211,57704,71859
1708516849268,1708516849268,1,184220,57711,71870
1708516849308,1708516849308,1,184290,57715,71889
1708516849348,1708516849348,1,184427,57725,71912
1708516849388,1708516849388,1,184597,57739,71938
1708516849428,1708516849428,1,184784,57746,71975
1708516849468,1708516849468,1,184986,57760,72008
1708516849508,1708516849508,1,185181,57771,72029
1708516849548,1708516849548,1,185397,57776,72056
1708516849588,1708516849588,1,185608,57795,72092
1708516849628,1708516849628,1,185841,57805,72135
1708516849668,1708516849668,1,186070,57818,72154
1708516849708,1708516849708,1,186088,57782,72088
1708516849748,1708516849748,1,185693,57738,71969
1708516849788,1708516849788,1,185129,57713,71879
1708516849828,1708516849828,1,184712,57706,71839
1708516849868,1708516849868,1,184469,57698,71825
1708516849908,1708516849908,1,184386,57704,71837
1708516849948,1708516849948,1,184410,57708,71853
1708516849988,1708516849988,1,184437,57709,71855
1708516850028,1708516850028,1,184429,57706,71849
1708516850068,1708516850068,1,184425,57706,71851
1708516850108,1708516850108,1,184479,57707,71857
1708516850148,1708516850148,1,184585,57714,71876
1708516850188,1708516850188,1,184734,57722,71905
1708516850228,1708516850228,1,184888,57738,71936
1708516850268,1708516850268,1,185076,57747,71967
1708516850308,1708516850308,1,185272,57754,71995
1708516850348,1708516850348,1,185469,57764,72022
1708516850388,1708516850388,1,185682,57774,72048
1708516850428,1708516850428,1,185892,57790,72085
1708516850468,1708516850468,1,186109,57796,72109
1708516850508,1708516850508,1,186338,57805,72136
1708516850548,1708516850548,1,186502,57798,72131
1708516850588,1708516850588,1,186311,57754,72017
1708516850628,1708516850628,1,185723,57708,71890
1708516850668,1708516850668,1,185114,57680,71806
1708516850708,1708516850708,1,184701,57669,71766
1708516850748,1708516850748,1,184462,57670,71757
1708516850788,1708516850788,1,184393,57674,71762
1708516850828,1708516850828,1,184413,57680,71781
1708516850868,1708516850868,1,184424,57675,71778
1708516850908,1708516850908,1,184406,57675,71769
1708516850948,1708516850948,1,184410,57676,71778
1708516850998,1708516850998,1,184484,57683,71792
1708516851036,1708516851036,1,184600,57687,71818
1708516851074,1708516851074,1,184751,57685,71844
1708516851112,1708516851112,1,184924,57706,71877
1708516851150,1708516851150,1,185115,57721,71907
1708516851188,1708516851188,1,185315,57731,71937
1708516851226,1708516851226,1,185521,57738,71965
1708516851264,1708516851264,1,185731,57754,71997
1708516851302,1708516851302,1,185963,57768,72031
1708516851340,1708516851340,1,186166,57777,72066
1708516851378,1708516851378,1,186393,57790,72108
1708516851416,1708516851416,1,186621,57793,72120
1708516851454,1708516851454,1,186573,57764,72031
1708516851492,1708516851492,1,186085,57706,71898
1708516851530,1708516851530,1,185477,57673,71804
1708516851568,1708516851568,1,185036,57656,71755
1708516851606,1708516851606,1,184784,57654,71727
1708516851644,1708516851644,1,184686,57655,71746
1708516851682,1708516851682,1,184709,57668,71759
1708516851720,1708516851720,1,184711,57662,71761
1708516851758,1708516851758,1,184691,57656,71748
1708516851796,1708516851796,1,184669,57653,71746
1708516851834,1708516851834,1,184715,57661,71763
1708516851872,1708516851872,1,184814,57673,71786
1708516851910,1708516851910,1,184959,57680,71816
1708516851948,1708516851948,1,185128,57694,71845
1708516851988,1708516851988,1,185316,57700,71871
1708516852028,1708516852028,1,185506,57707,71896
1708516852068,1708516852068,1,185700,57719,71921
1708516852108,1708516852108,1,185885,57721,71949
1708516852148,1708516852148,1,186103,57731,71979
1708516852188,1708516852188,1,186331,57745,72014
1708516852228,1708516852228,1,186478,57736,72002
1708516852268,1708516852268,1,186255,57696,71890
1708516852308,1708516852308,1,185696,57649,71762
1708516852348,1708516852348,1,185162,57627,71695
1708516852388,1708516852388,1,184786,57615,71665
1708516852428,1708516852428,1,184589,57614,71652
1708516852468,1708516852468,1,184547,57625,71666
1708516852508,1708516852508,1,184547,57622,71679
1708516852548,1708516852548,1,184542,57618,71674
1708516852588,1708516852588,1,184523,57618,71663
1708516852628,1708516852628,1,184527,57616,71669
1708516852668,1708516852668,1,184591,57624,71690
1708516852708,1708516852708,1,184707,57634,71710
1708516852748,1708516852748,1,184857,57639,71734
1708516852788,1708516852788,1,185018,57656,71755
1708516852828,1708516852828,1,185206,57660,71788
1708516852868,1708516852868,1,185398,57673,71816
1708516852908,1708516852908,1,185595,57683,71841
1708516852948,1708516852948,1,185802,57691,71875
1708516852988,1708516852988,1,186000,57693,71907
1708516853028,1708516853028,1,186222,57710,71940
1708516853068,1708516853068,1,186448,57724,71976
1708516853108,1708516853108,1,186625,57720,71979
1708516853148,1708516853148,1,186457,57667,71867
1708516853188,1708516853188,1,185903,57619,71718
1708516853228,1708516853228,1,185298,57582,71626
1708516853268,1708516853268,1,184874,57564,71569
1708516853308,1708516853308,1,184615,57561,71560
1708516853348,1708516853348,1,184535,57576,71580
1708516853388,1708516853388,1,184540,57582,71595
1708516853428,1708516853428,1,184565,57585,71606
1708516853468,1708516853468,1,184567,57585,71606
1708516853508,1708516853508,1,184604,57594,71618
1708516853548,1708516853548,1,184681,57601,71645
1708516853588,1708516853588,1,184809,57609,71673
1708516853628,1708516853628,1,184988,57622,71702
1708516853668,1708516853668,1,185175,57636,71739
1708516853708,1708516853708,1,185381,57647,71778
1708516853748,1708516853748,1,185597,57658,71808
1708516853788,1708516853788,1,185805,57661,71830
1708516853828,1708516853828,1,186024,57666,71852
1708516853868,1708516853868,1,186243,57676,71884
1708516853908,1708516853908,1,186467,57687,71906
1708516853948,1708516853948,1,186708,57703,71949
1708516853988,1708516853988,1,186924,57702,71954
1708516854028,1708516854028,1,186889,57665,71870
1708516854068,1708516854068,1,186440,57612,71739
1708516854108,1708516854108,1,185874,57582,71644
1708516854148,1708516854148,1,185438,57569,71603
1708516854188,1708516854188,1,185168,57564,71592
1708516854228,1708516854228,1,185079,57570,71596
1708516854268,1708516854268,1,185072,57575,71612
1708516854308,1708516854308,1,185087,57571,71614
1708516854348,1708516854348,1,185056,57568,71606
1708516854388,1708516854388,1,185041,57564,71604
1708516854428,1708516854428,1,185084,57578,71621
1708516854468,1708516854468,1,185186,57578,71652
1708516854508,1708516854508,1,185339,57595,71680
1708516854548,1708516854548,1,185513,57608,71712
1708516854588,1708516854588,1,185707,57618,71750
1708516854628,1708516854628,1,185904,57624,71782
1708516854668,1708516854668,1,186099,57641,71808
1708516854708,1708516854708,1,186319,57655,71844
1708516854748,1708516854748,1,186539,57661,71871
1708516854788,1708516854788,1,186641,57645,71842
1708516854828,1708516854828,1,186358,57603,71726
1708516854868,1708516854868,1,185831,57571,71640
1708516854908,1708516854908,1,185394,57558,71597
1708516854948,1708516854948,1,185135,57553,71580
1708516854998,1708516854998,1,185050,57561,71598
1708516855036,1708516855036,1,185076,57568,71625
1708516855074,1708516855074,1,185153,57570,71635
1708516855112,1708516855112,1,185176,57575,71642
1708516855150,1708516855150,1,185201,57574,71645
1708516855188,1708516855188,1,185286,57584,71674
1708516855226,1708516855226,1,185413,57593,71701
1708516855264,1708516855264,1,185586,57610,71734
1708516855302,1708516855302,1,185784,57623,71769
1708516855340,1708516855340,1,186005,57636,71814
1708516855378,1708516855378,1,186226,57654,71850
1708516855416,1708516855416,1,186464,57662,71880
1708516855454,1708516855454,1,186695,57674,71918
1708516855492,1708516855492,1,186933,57683,71954
1708516855530,1708516855530,1,187183,57701,71990
1708516855568,1708516855568,1,187391,57693,71990
1708516855606,1708516855606,1,187267,57650,71888
1708516855644,1708516855644,1,186776,57610,71767
1708516855682,1708516855682,1,186251,57582,71700
1708516855720,1708516855720,1,185902,57568,71671
1708516855758,1708516855758,1,185709,57574,71672
1708516855796,1708516855796,1,185670,57587,71699
1708516855834,1708516855834,1,185708,57597,71720
1708516855872,1708516855872,1,185740,57603,71732
1708516855910,1708516855910,1,185739,57605,71744
1708516855948,1708516855948,1,185755,57602,71745
1708516855988,1708516855988,1,185826,57606,71755
1708516856028,1708516856028,1,185941,57610,71779
1708516856068,1708516856068,1,186090,57620,71809
1708516856108,1708516856108,1,186262,57631,71836
1708516856148,1708516856148,1,186449,57640,71855
1708516856188,1708516856188,1,186629,57648,71881
1708516856228,1708516856228,1,186820,57645,71903
1708516856268,1708516856268,1,187003,57659,71921
1708516856308,1708516856308,1,187207,57669,71950
1708516856348,1708516856348,1,187430,57666,71969
1708516856388,1708516856388,1,187632,57667,71983
1708516856428,1708516856428,1,187566,57630,71895
1708516856468,1708516856468,1,187099,57590,71777
1708516856508,1708516856508,1,186534,57563,71701
1708516856548,1708516856548,1,186118,57553,71666
1708516856588,1708516856588,1,185871,57554,71658
1708516856628,1708516856628,1,185774,57558,71669
1708516856668,1708516856668,1,185771,57561,71684
1708516856708,1708516856708,1,185785,57559,71685
1708516856748,1708516856748,1,185770,57561,71683
1708516856788,1708516856788,1,185789,57561,71692
1708516856828,1708516856828,1,185840,57574,71718
1708516856868,1708516856868,1,185939,57585,71741
1708516856908,1708516856908,1,186077,57588,71759
1708516856948,1708516856948,1,186245,57598,71788
1708516856988,1708516856988,1,186434,57608,71820
1708516857028,1708516857028,1,186623,57616,71840
1708516857068,1708516857068,1,186806,57625,71872
1708516857108,1708516857108,1,187001,57635,71901
1708516857148,1708516857148,1,187211,57645,71927
1708516857188,1708516857188,1,187429,57658,71958
1708516857228,1708516857228,1,187591,57652,71955
1708516857268,1708516857268,1,187453,57603,71847
1708516857308,1708516857308,1,186972,57563,71739
1708516857348,1708516857348,1,186450,57542,71678
1708516857388,1708516857388,1,186096,57542,71650
1708516857428,1708516857428,1,185923,57544,71655
1708516857468,1708516857468,1,185884,57553,71680
1708516857508,1708516857508,1,185912,57555,71695
1708516857548,1708516857548,1,185924,57559,71695
1708516857588,1708516857588,1,185914,57558,71693
1708516857628,1708516857628,1,185932,57563,71698
1708516857668,1708516857668,1,186004,57568,71715
1708516857708,1708516857708,1,186121,57576,71742
1708516857748,1708516857748,1,186274,57589,71773
1708516857788,1708516857788,1,186444,57597,71791
1708516857828,1708516857828,1,186628,57598,71819
1708516857868,1708516857868,1,186804,57608,71838
1708516857908,1708516857908,1,186991,57620,71871
1708516857948,1708516857948,1,187182,57629,71889
1708516857988,1708516857988,1,187330,57619,71883
1708516858028,1708516858028,1,187179,57580,71784
1708516858068,1708516858068,1,186684,57542,71679
1708516858108,1708516858108,1,186195,57526,71630
1708516858148,1708516858148,1,185861,57519,71608
1708516858188,1708516858188,1,185693,57523,71610
1708516858228,1708516858228,1,185665,57536,71637
1708516858268,1708516858268,1,185696,57537,71646
1708516858308,1708516858308,1,185705,57526,71633
1708516858348,1708516858348,1,185691,57533,71634
1708516858388,1708516858388,1,185698,57532,71643
1708516858428,1708516858428,1,185776,57546,71663
1708516858468,1708516858468,1,185884,57547,71690
1708516858508,1708516858508,1,186041,57565,71720
1708516858548,1708516858548,1,186198,57573,71744
1708516858588,1708516858588,1,186381,57581,71764
1708516858628,1708516858628,1,186549,57589,71788
1708516858668,1708516858668,1,186730,57602,71816
1708516858708,1708516858708,1,186919,57611,71841
1708516858748,1708516858748,1,187085,57606,71847
1708516858788,1708516858788,1,186979,57564,71745
1708516858828,1708516858828,1,186475,57515,71615
1708516858868,1708516858868,1,185859,57483,71532
1708516858908,1708516858908,1,185385,57475,71493
1708516858948,1708516858948,1,185090,57476,71478
1708516858998,1708516858998,1,184962,57478,71493
1708516859036,1708516859036,1,184935,57476,71498
1708516859074,1708516859074,1,184899,57478,71491
1708516859112,1708516859112,1,184838,57470,71476
1708516859150,1708516859150,1,184807,57471,71480
1708516859188,1708516859188,1,184834,57473,71491
1708516859226,1708516859226,1,184924,57477,71509
1708516859264,1708516859264,1,185048,57490,71536
1708516859302,1708516859302,1,185198,57502,71555
1708516859340,1708516859340,1,185365,57510,71584
1708516859378,1708516859378,1,185537,57520,71612
1708516859416,1708516859416,1,185706,57529,71637
1708516859454,1708516859454,1,185894,57543,71668
1708516859492,1708516859492,1,186094,57550,71702
1708516859530,1708516859530,1,186304,57569,71741
1708516859568,1708516859568,1,186407,57553,71699
1708516859606,1708516859606,1,186104,57492,71567
1708516859644,1708516859644,1,185442,57439,71443
1708516859682,1708516859682,1,184820,57419,71374
1708516859720,1708516859720,1,184367,57411,71351
1708516859758,1708516859758,1,184118,57417,71344
1708516859796,1708516859796,1,184041,57430,71367
1708516859834,1708516859834,1,184027,57434,71380
1708516859872,1708516859872,1,183979,57432,71380
1708516859910,1708516859910,1,183938,57427,71368
1708516859948,1708516859948,1,183935,57434,71377
